#\*l [\oA]	Flux [mW/m\sp2\ep/\nm]
  533.66  9.71117e-16
  533.68  9.61489e-16
  533.70  9.51663e-16
  533.72  9.50970e-16
  533.74  9.50275e-16
  533.76  9.49580e-16
  533.78  9.48885e-16
  533.80  9.48192e-16
  533.82  9.47497e-16
  533.84  9.46802e-16
  533.86  9.46108e-16
  533.88  9.45413e-16
  533.90  9.44719e-16
  533.92  9.44026e-16
  533.94  9.43331e-16
  533.96  9.42635e-16
  533.98  9.41943e-16
  534.00  9.41248e-16
  534.02  9.40553e-16
  534.04  9.39860e-16
  534.06  9.39165e-16
  534.08  9.38470e-16
  534.10  9.37777e-16
  534.12  9.37082e-16
  534.14  9.36387e-16
  534.16  9.35694e-16
  534.18  9.34998e-16
  534.20  9.34303e-16
  534.22  9.33611e-16
  534.24  9.32916e-16
  534.26  9.32221e-16
  534.28  9.31525e-16
  534.30  9.30833e-16
  534.32  9.30138e-16
  534.34  9.29443e-16
  534.36  9.28750e-16
  534.38  9.28055e-16
  534.40  9.27360e-16
  534.42  9.26667e-16
  534.44  9.25972e-16
  534.46  9.25277e-16
  534.48  9.24584e-16
  534.50  9.23889e-16
  534.52  9.23193e-16
  534.54  9.22501e-16
  534.56  9.21806e-16
  534.58  9.21111e-16
  534.60  9.20418e-16
  534.62  9.19722e-16
  534.64  9.19027e-16
  534.66  9.18335e-16
  534.68  9.17640e-16
  534.70  9.16944e-16
  534.72  9.16252e-16
  534.74  9.15557e-16
  534.76  9.14862e-16
  534.78  9.14166e-16
  534.80  9.13473e-16
  534.82  9.12778e-16
  534.84  9.12083e-16
  534.86  9.11391e-16
  534.88  9.10696e-16
  534.90  9.10001e-16
  534.92  9.09307e-16
  534.94  9.08612e-16
  534.96  9.07917e-16
  534.98  9.07224e-16
  535.00  9.06529e-16
  535.02  9.05834e-16
  535.04  9.05141e-16
  535.06  9.04446e-16
  535.08  9.03751e-16
  535.10  9.03058e-16
  535.12  9.02363e-16
  535.14  9.01668e-16
  535.16  9.00975e-16
  535.18  9.00280e-16
  535.20  8.99585e-16
  535.22  8.98892e-16
  535.24  8.98197e-16
  535.26  8.97502e-16
  535.28  8.96807e-16
  535.30  8.96114e-16
  535.32  8.95419e-16
  535.34  8.94724e-16
  535.36  8.94031e-16
  535.38  8.93336e-16
  535.40  8.92641e-16
  535.42  8.91948e-16
  535.44  8.91253e-16
  535.46  8.90558e-16
  535.48  8.89865e-16
  535.50  8.89170e-16
  535.52  8.88475e-16
  535.54  8.87782e-16
  535.56  8.87087e-16
  535.58  8.86392e-16
  535.60  8.85699e-16
  535.62  8.85004e-16
  535.64  8.84309e-16
  535.66  8.83616e-16
  535.68  8.82921e-16
  535.70  8.82226e-16
  535.72  8.81533e-16
  535.74  8.80838e-16
  535.76  8.80143e-16
  535.78  8.79448e-16
  535.80  8.78754e-16
  535.82  8.78059e-16
  535.84  8.77364e-16
  535.86  8.76672e-16
  535.88  8.75976e-16
  535.90  8.75281e-16
  535.92  8.74588e-16
  535.94  8.73893e-16
  535.96  8.73198e-16
  535.98  8.72505e-16
  536.00  8.71810e-16
  536.02  8.71115e-16
  536.04  8.70422e-16
  536.06  8.69727e-16
  536.08  8.69032e-16
  536.10  8.68339e-16
  536.12  8.67644e-16
  536.14  8.66949e-16
  536.16  8.66256e-16
  536.18  8.65561e-16
  536.20  8.64866e-16
  536.22  8.64173e-16
  536.24  8.63478e-16
  536.26  8.62783e-16
  536.28  8.62088e-16
  536.30  8.61395e-16
  536.32  8.60699e-16
  536.34  8.60004e-16
  536.36  8.59312e-16
  536.38  8.58617e-16
  536.40  8.57921e-16
  536.42  8.57228e-16
  536.44  8.56533e-16
  536.46  8.55838e-16
  536.48  8.55145e-16
  536.50  8.54450e-16
  536.52  8.53755e-16
  536.54  8.53062e-16
  536.56  8.52367e-16
  536.58  8.51672e-16
  536.60  8.50979e-16
  536.62  8.50284e-16
  536.64  8.49589e-16
  536.66  8.48896e-16
  536.68  8.48201e-16
  536.70  8.47506e-16
  536.72  8.46813e-16
  536.74  8.46118e-16
  536.76  8.45423e-16
  536.78  8.44727e-16
  536.80  8.44035e-16
  536.82  8.43340e-16
  536.84  8.42644e-16
  536.86  8.41951e-16
  536.88  8.41256e-16
  536.90  8.40561e-16
  536.92  8.39868e-16
  536.94  8.39173e-16
  536.96  8.38478e-16
  536.98  8.37785e-16
  537.00  8.37090e-16
  537.02  8.36395e-16
  537.04  8.35702e-16
  537.06  8.35007e-16
  537.08  8.34312e-16
  537.10  8.33619e-16
  537.12  8.32924e-16
  537.14  8.32229e-16
  537.16  8.31536e-16
  537.18  8.30841e-16
  537.20  8.30145e-16
  537.22  8.29453e-16
  537.24  8.28758e-16
  537.26  8.28063e-16
  537.28  8.27367e-16
  537.30  8.26674e-16
  537.32  8.25979e-16
  537.34  8.25284e-16
  537.36  8.24591e-16
  537.38  8.23896e-16
  537.40  8.23201e-16
  537.42  8.22508e-16
  537.44  8.21813e-16
  537.46  8.21118e-16
  537.48  8.20425e-16
  537.50  8.19730e-16
  537.52  8.19035e-16
  537.54  8.18342e-16
  537.56  8.17647e-16
  537.58  8.16952e-16
  537.60  8.16259e-16
  537.62  8.15563e-16
  537.64  8.14868e-16
  537.66  8.14175e-16
  537.68  8.13480e-16
  537.70  8.12785e-16
  537.72  8.12092e-16
  537.74  8.11397e-16
  537.76  8.10702e-16
  537.78  8.10007e-16
  537.80  8.09314e-16
  537.82  8.08619e-16
  537.84  8.07924e-16
  537.86  8.07231e-16
  537.88  8.06536e-16
  537.90  8.05841e-16
  537.92  8.05148e-16
  537.94  8.04452e-16
  537.96  8.03757e-16
  537.98  8.03064e-16
  538.00  8.02369e-16
  538.02  8.01674e-16
  538.04  8.00981e-16
  538.06  8.00286e-16
  538.08  7.99591e-16
  538.10  7.98898e-16
  538.12  7.98203e-16
  538.14  7.97508e-16
  538.16  7.96815e-16
  538.18  7.96120e-16
  538.20  7.95425e-16
  538.22  7.94732e-16
  538.24  7.94037e-16
  538.26  7.93341e-16
  538.28  7.92646e-16
  538.30  7.91953e-16
  538.32  7.91258e-16
  538.34  7.90563e-16
  538.36  7.89870e-16
  538.38  7.89175e-16
  538.40  7.88480e-16
  538.42  7.87787e-16
  538.44  7.87092e-16
  538.46  7.86397e-16
  538.48  7.85704e-16
  538.50  7.85009e-16
  538.52  7.84313e-16
  538.54  7.83620e-16
  538.56  7.82925e-16
  538.58  7.82230e-16
  538.60  7.81537e-16
  538.62  7.80842e-16
  538.64  7.80147e-16
  538.66  7.79454e-16
  538.68  7.78759e-16
  538.70  7.78064e-16
  538.72  7.77371e-16
  538.74  7.76676e-16
  538.76  7.75980e-16
  538.78  7.75285e-16
  538.80  7.74592e-16
  538.82  7.73897e-16
  538.84  7.73202e-16
  538.86  7.72509e-16
  538.88  7.71814e-16
  538.90  7.71119e-16
  538.92  7.70426e-16
  538.94  7.69731e-16
  538.96  7.69036e-16
  538.98  7.68343e-16
  539.00  7.67648e-16
  539.02  7.66952e-16
  539.04  7.66259e-16
  539.06  7.65564e-16
  539.08  7.64869e-16
  539.10  7.64176e-16
  539.12  7.63481e-16
  539.14  7.62786e-16
  539.16  7.62093e-16
  539.18  7.61398e-16
  539.20  7.60703e-16
  539.22  7.60010e-16
  539.24  7.59314e-16
  539.26  7.58619e-16
  539.28  7.57924e-16
  539.30  7.57231e-16
  539.32  7.56536e-16
  539.34  7.55841e-16
  539.36  7.55148e-16
  539.38  7.54453e-16
  539.40  7.53758e-16
  539.42  7.53065e-16
  539.44  7.52370e-16
  539.46  7.51674e-16
  539.48  7.50982e-16
  539.50  7.50286e-16
  539.52  7.49591e-16
  539.54  7.48898e-16
  539.56  7.48203e-16
  539.58  7.47508e-16
  539.60  7.46815e-16
  539.62  7.46120e-16
  539.64  7.45425e-16
  539.66  7.44732e-16
  539.68  7.44037e-16
  539.70  7.43341e-16
  539.72  7.42648e-16
  539.74  7.41953e-16
  539.76  7.41258e-16
  539.78  7.40563e-16
  539.80  7.39870e-16
  539.82  7.39175e-16
  539.84  7.38480e-16
  539.86  7.37787e-16
  539.88  7.37092e-16
  539.90  7.36396e-16
  539.92  7.35703e-16
  539.94  7.35008e-16
  539.96  7.34313e-16
  539.98  7.33620e-16
  540.00  7.32925e-16
  540.02  7.32230e-16
  540.04  7.31537e-16
  540.06  7.30842e-16
  540.08  7.30147e-16
  540.10  7.29454e-16
  540.12  7.28758e-16
  540.14  7.28063e-16
  540.16  7.27370e-16
  540.18  7.26675e-16
  540.20  7.25980e-16
  540.22  7.25287e-16
  540.24  7.24592e-16
  540.26  7.23897e-16
  540.28  7.23202e-16
  540.30  7.22508e-16
  540.32  7.21813e-16
  540.34  7.21118e-16
  540.36  7.20425e-16
  540.38  7.19730e-16
  540.40  7.19035e-16
  540.42  7.18342e-16
  540.44  7.17647e-16
  540.46  7.16952e-16
  540.48  7.16259e-16
  540.50  7.15563e-16
  540.52  7.14868e-16
  540.54  7.14175e-16
  540.56  7.13480e-16
  540.58  7.12785e-16
  540.60  7.12092e-16
  540.62  7.11397e-16
  540.64  7.10702e-16
  540.66  7.10009e-16
  540.68  7.09313e-16
  540.70  7.08618e-16
  540.72  7.07925e-16
  540.74  7.07230e-16
  540.76  7.06535e-16
  540.78  7.05840e-16
  540.80  7.05147e-16
  540.82  7.04452e-16
  540.84  7.03756e-16
  540.86  7.03063e-16
  540.88  7.02368e-16
  540.90  7.01673e-16
  540.92  7.00980e-16
  540.94  7.00285e-16
  540.96  6.99590e-16
  540.98  6.98897e-16
  541.00  6.98201e-16
  541.02  6.97506e-16
  541.04  6.96813e-16
  541.06  6.96118e-16
  541.08  6.95423e-16
  541.10  6.94730e-16
  541.12  6.94035e-16
  541.14  6.93340e-16
  541.16  6.92647e-16
  541.18  6.91952e-16
  541.20  6.91256e-16
  541.22  6.90563e-16
  541.24  6.89868e-16
  541.26  6.89173e-16
  541.28  6.88478e-16
  541.30  6.87785e-16
  541.32  6.87090e-16
  541.34  6.86394e-16
  541.36  6.85701e-16
  541.38  6.85006e-16
  541.40  6.84311e-16
  541.42  6.83618e-16
  541.44  6.82923e-16
  541.46  6.82228e-16
  541.48  6.81535e-16
  541.50  6.80840e-16
  541.52  6.80144e-16
  541.54  6.79451e-16
  541.56  6.78756e-16
  541.58  6.78061e-16
  541.60  6.77368e-16
  541.62  6.76673e-16
  541.64  6.75978e-16
  541.66  6.75284e-16
  541.68  6.74589e-16
  541.70  6.73894e-16
  541.72  6.73201e-16
  541.74  6.72506e-16
  541.76  6.71811e-16
  541.78  6.71116e-16
  541.80  6.70423e-16
  541.82  6.69728e-16
  541.84  6.69032e-16
  541.86  6.68339e-16
  541.88  6.67644e-16
  541.90  6.66949e-16
  541.92  6.66256e-16
  541.94  6.65561e-16
  541.96  6.64866e-16
  541.98  6.64173e-16
  542.00  6.63477e-16
  542.02  6.62782e-16
  542.04  6.62089e-16
  542.06  6.61394e-16
  542.08  6.60699e-16
  542.10  6.60006e-16
  542.12  6.59310e-16
  542.14  6.58615e-16
  542.16  6.57922e-16
  542.18  6.57227e-16
  542.20  6.56532e-16
  542.22  6.55839e-16
  542.24  6.55144e-16
  542.26  6.54449e-16
  542.28  6.53753e-16
  542.30  6.53060e-16
  542.32  6.52365e-16
  542.34  6.51670e-16
  542.36  6.50977e-16
  542.38  6.50282e-16
  542.40  6.49586e-16
  542.42  6.48893e-16
  542.44  6.48198e-16
  542.46  6.47503e-16
  542.48  6.46810e-16
  542.50  6.46115e-16
  542.52  6.45420e-16
  542.54  6.44726e-16
  542.56  6.44031e-16
  542.58  6.43336e-16
  542.60  6.42643e-16
  542.62  6.41948e-16
  542.64  6.41253e-16
  542.66  6.40560e-16
  542.68  6.39865e-16
  542.70  6.39169e-16
  542.72  6.38476e-16
  542.74  6.37781e-16
  542.76  6.37086e-16
  542.78  6.36391e-16
  542.80  6.35698e-16
  542.82  6.35002e-16
  542.84  6.34307e-16
  542.86  6.33614e-16
  542.88  6.32919e-16
  542.90  6.32224e-16
  542.92  6.31531e-16
  542.94  6.30836e-16
  542.96  6.30140e-16
  542.98  6.29447e-16
  543.00  6.28752e-16
  543.02  6.28057e-16
  543.04  6.27364e-16
  543.06  6.26669e-16
  543.08  6.25973e-16
  543.10  6.25280e-16
  543.12  6.24585e-16
  543.14  6.23890e-16
  543.16  6.23197e-16
  543.18  6.22502e-16
  543.20  6.21807e-16
  543.22  6.21114e-16
  543.24  6.20418e-16
  543.26  6.19723e-16
  543.28  6.19028e-16
  543.30  6.18335e-16
  543.32  6.17640e-16
  543.34  6.16944e-16
  543.36  6.16251e-16
  543.38  6.15556e-16
  543.40  6.14861e-16
  543.42  6.14168e-16
  543.44  6.13473e-16
  543.46  6.12778e-16
  543.48  6.12085e-16
  543.50  6.11389e-16
  543.52  6.10694e-16
  543.54  6.10001e-16
  543.56  6.09306e-16
  543.58  6.08611e-16
  543.60  6.07918e-16
  543.62  6.07222e-16
  543.64  6.06527e-16
  543.66  6.05834e-16
  543.68  6.05139e-16
  543.70  6.04444e-16
  543.72  6.03751e-16
  543.74  6.03055e-16
  543.76  6.02360e-16
  543.78  6.01665e-16
  543.80  6.00972e-16
  543.82  6.00277e-16
  543.84  5.99582e-16
  543.86  5.98888e-16
  543.88  5.98193e-16
  543.90  5.97498e-16
  543.92  5.96805e-16
  543.94  5.96110e-16
  543.96  5.95414e-16
  543.98  5.94721e-16
  544.00  5.94026e-16
  544.02  5.93331e-16
  544.04  5.92638e-16
  544.06  5.91943e-16
  544.08  5.91247e-16
  544.10  5.90554e-16
  544.12  5.89859e-16
  544.14  5.89164e-16
  544.16  5.88471e-16
  544.18  5.87776e-16
  544.20  5.87080e-16
  544.22  5.86387e-16
  544.24  5.85692e-16
  544.26  5.84997e-16
  544.28  5.84302e-16
  544.30  5.83609e-16
  544.32  5.82913e-16
  544.34  5.82218e-16
  544.36  5.81525e-16
  544.38  5.80830e-16
  544.40 -1.55045e-15
  544.42 -1.23274e-15
  544.44  7.06611e-17
  544.46  3.70488e-15
  544.48 -2.08888e-15
  544.50 -1.92691e-15
  544.52  4.37606e-15
  544.54  2.49680e-16
  544.56 -8.51020e-16
  544.58 -1.66240e-15
  544.60 -7.60181e-16
  544.62  2.66697e-15
  544.64 -2.49359e-15
  544.66 -6.62293e-16
  544.68 -6.22084e-16
  544.70 -1.31074e-15
  544.72  2.38162e-15
  544.74  3.81788e-15
  544.76  1.78539e-15
  544.78 -3.59402e-15
  544.80  5.17142e-17
  544.82 -3.08848e-15
  544.84 -7.32644e-16
  544.86 -2.57983e-15
  544.88  6.52046e-16
  544.90  1.12308e-15
  544.92 -2.51965e-15
  544.94  1.03782e-15
  544.96  4.04891e-15
  544.98 -6.12682e-16
  545.00 -3.07831e-16
  545.02  2.73955e-15
  545.04 -1.14585e-16
  545.06 -3.04332e-15
  545.08 -7.45100e-16
  545.10  2.05917e-16
  545.12  5.44398e-17
  545.14  2.99993e-15
  545.16  1.07107e-15
  545.18 -1.24181e-15
  545.20  1.83705e-15
  545.22 -7.29555e-16
  545.24  2.44948e-15
  545.26  2.58158e-16
  545.28  3.66083e-16
  545.30  3.81213e-16
  545.32  3.63024e-15
  545.34 -3.02856e-15
  545.36 -1.96000e-15
  545.38  1.22504e-15
  545.40  4.26757e-16
  545.42  1.25008e-15
  545.44  2.80064e-16
  545.46  4.31168e-16
  545.48  4.89423e-16
  545.50  1.17026e-15
  545.52 -8.93609e-16
  545.54 -2.08264e-15
  545.56 -1.79928e-15
  545.58  8.68727e-16
  545.60 -1.28495e-15
  545.62  2.12507e-15
  545.64 -1.78698e-16
  545.66  3.17993e-16
  545.68 -1.17370e-15
  545.70  1.27589e-16
  545.72 -6.35946e-16
  545.74  2.23261e-15
  545.76  3.24914e-18
  545.78 -9.51230e-16
  545.80 -7.86348e-16
  545.82 -8.45550e-16
  545.84 -1.46862e-15
  545.86  1.37844e-15
  545.88 -2.15298e-15
  545.90 -1.44421e-15
  545.92 -9.02789e-16
  545.94  2.45278e-15
  545.96 -1.24602e-15
  545.98  3.80645e-18
  546.00 -7.44827e-16
  546.02 -1.51640e-15
  546.04 -1.74048e-16
  546.06  3.93136e-16
  546.08 -3.54168e-16
  546.10  9.96980e-17
  546.12 -1.68349e-15
  546.14 -7.63178e-16
  546.16 -1.92798e-15
  546.18  2.95265e-17
  546.20  2.76635e-15
  546.22 -1.60786e-15
  546.24  1.29772e-15
  546.26  1.25275e-15
  546.28 -6.02994e-16
  546.30 -1.52022e-15
  546.32 -3.87519e-17
  546.34  5.98321e-16
  546.36 -7.06588e-16
  546.38 -3.35652e-16
  546.40 -1.47485e-15
  546.42  7.62628e-16
  546.44  1.69925e-15
  546.46  3.76111e-16
  546.48  7.90019e-16
  546.50  6.86336e-16
  546.52 -1.99417e-15
  546.54 -9.70547e-16
  546.56  1.29285e-15
  546.58  1.16280e-16
  546.60  5.70084e-16
  546.62  2.13746e-15
  546.64  1.21418e-16
  546.66  2.22079e-15
  546.68  2.58389e-15
  546.70  1.87598e-16
  546.72 -9.79184e-16
  546.74  6.80470e-16
  546.76  3.37171e-16
  546.78 -4.95466e-16
  546.80 -1.31042e-15
  546.82  1.24426e-15
  546.84  7.39393e-16
  546.86 -3.24617e-17
  546.88  1.12517e-15
  546.90  3.05453e-16
  546.92 -1.39586e-16
  546.94 -2.01845e-17
  546.96 -1.16390e-15
  546.98  1.77935e-15
  547.00  1.57476e-16
  547.02 -1.86944e-15
  547.04  1.38454e-15
  547.06  3.92575e-16
  547.08  1.32547e-16
  547.10  1.90945e-15
  547.12 -5.58070e-16
  547.14 -2.12172e-15
  547.16  1.24236e-15
  547.18 -9.26939e-16
  547.20 -3.47311e-16
  547.22 -1.23833e-15
  547.24 -4.83534e-16
  547.26 -2.80400e-16
  547.28  4.39825e-16
  547.30 -5.36406e-16
  547.32  1.23484e-15
  547.34 -3.83656e-16
  547.36  4.33317e-16
  547.38 -1.15515e-16
  547.40 -2.81268e-18
  547.42 -5.75573e-16
  547.44 -6.51953e-16
  547.46  3.56336e-17
  547.48  3.28241e-16
  547.50  1.96258e-16
  547.52 -8.30424e-16
  547.54  1.73394e-15
  547.56 -5.15769e-16
  547.58  3.66761e-16
  547.60 -1.51388e-16
  547.62 -7.14423e-16
  547.64  1.47601e-15
  547.66 -1.68261e-16
  547.68 -2.46943e-16
  547.70  2.33892e-16
  547.72  1.28403e-15
  547.74 -1.19098e-15
  547.76  8.33881e-16
  547.78 -6.77067e-16
  547.80 -7.29921e-16
  547.82 -6.98317e-16
  547.84  2.08015e-16
  547.86 -1.32826e-15
  547.88  1.96883e-16
  547.90  2.52065e-16
  547.92  7.04263e-16
  547.94  1.02885e-15
  547.96  3.93754e-18
  547.98 -2.28217e-16
  548.00 -1.83634e-16
  548.02  8.82732e-16
  548.04 -1.21950e-15
  548.06  3.76436e-16
  548.08  1.55324e-15
  548.10  4.06302e-16
  548.12 -5.67711e-17
  548.14  4.04229e-16
  548.16  8.46018e-16
  548.18 -3.34081e-16
  548.20  4.76715e-16
  548.22 -1.35800e-17
  548.24 -5.07325e-16
  548.26  1.49256e-15
  548.28 -5.11226e-16
  548.30  1.91124e-16
  548.32 -2.13676e-15
  548.34 -5.18154e-16
  548.36  5.53343e-16
  548.38 -2.67100e-16
  548.40 -2.69258e-16
  548.42  1.38585e-15
  548.44  1.49399e-15
  548.46  1.22725e-17
  548.48  1.32162e-15
  548.50 -3.03598e-15
  548.52  4.79758e-16
  548.54 -5.61237e-16
  548.56  8.94252e-16
  548.58 -4.15906e-16
  548.60 -1.13170e-15
  548.62  8.79497e-16
  548.64 -5.01283e-17
  548.66 -5.12264e-16
  548.68 -1.91730e-16
  548.70  9.17226e-17
  548.72  2.31480e-16
  548.74  4.42558e-16
  548.76  1.00988e-18
  548.78  5.15473e-16
  548.80  4.68953e-16
  548.82  3.36628e-16
  548.84 -3.55358e-16
  548.86  7.03500e-16
  548.88 -3.08564e-16
  548.90  7.68214e-16
  548.92  6.49798e-16
  548.94 -8.10051e-16
  548.96  1.97860e-16
  548.98  1.37140e-15
  549.00  5.31480e-16
  549.02  1.25845e-15
  549.04  1.11617e-15
  549.06 -1.01400e-15
  549.08  5.64610e-16
  549.10 -3.54622e-16
  549.12 -6.17272e-16
  549.14  3.27481e-16
  549.16  4.01382e-16
  549.18  5.44366e-16
  549.20  3.89894e-16
  549.22  3.23954e-16
  549.24  2.62292e-16
  549.26 -5.50507e-16
  549.28 -1.03455e-15
  549.30 -4.94504e-17
  549.32 -1.20556e-16
  549.34  4.37619e-16
  549.36  5.55905e-16
  549.38 -1.05651e-15
  549.40  5.40515e-16
  549.42  4.80917e-16
  549.44 -3.57868e-16
  549.46  9.69357e-16
  549.48 -4.58016e-16
  549.50  2.32786e-16
  549.52 -6.76043e-16
  549.54  2.35339e-16
  549.56  7.55916e-16
  549.58  8.71035e-18
  549.60 -8.97715e-18
  549.62 -2.91852e-16
  549.64 -7.24745e-16
  549.66 -3.29824e-16
  549.68  1.27250e-16
  549.70 -7.38513e-17
  549.72 -1.47320e-16
  549.74 -2.98251e-16
  549.76  3.91343e-16
  549.78 -6.98535e-16
  549.80  1.58484e-15
  549.82  6.35015e-16
  549.84  7.95435e-16
  549.86  8.86368e-16
  549.88  1.19524e-16
  549.90 -4.13715e-16
  549.92  2.93585e-16
  549.94 -1.15583e-16
  549.96 -3.94417e-16
  549.98  9.83767e-16
  550.00  3.71505e-16
  550.02  5.92139e-16
  550.04  9.30217e-16
  550.06  5.28938e-17
  550.08  4.04153e-16
  550.10  9.89530e-16
  550.12  5.53826e-16
  550.14  2.63664e-16
  550.16  7.98794e-16
  550.18  1.51639e-16
  550.20 -3.07804e-16
  550.22  6.43518e-16
  550.24  1.66114e-15
  550.26 -1.52493e-16
  550.28 -4.80050e-17
  550.30  4.51052e-16
  550.32  6.64488e-16
  550.34  8.01506e-16
  550.36  3.08634e-16
  550.38 -9.38960e-16
  550.40  7.17059e-16
  550.42 -1.26106e-15
  550.44 -7.54500e-16
  550.46 -1.32128e-16
  550.48  1.44247e-15
  550.50  3.47927e-16
  550.52  4.39045e-17
  550.54 -2.87640e-16
  550.56  6.43898e-17
  550.58 -1.17688e-16
  550.60  2.49049e-16
  550.62  6.28030e-16
  550.64  5.19063e-16
  550.66 -1.93992e-15
  550.68  1.86326e-16
  550.70  1.90753e-16
  550.72  3.60646e-16
  550.74 -2.86586e-16
  550.76  5.43425e-16
  550.78 -4.86674e-16
  550.80 -1.42996e-15
  550.82  4.76941e-16
  550.84  3.46371e-16
  550.86 -3.35401e-16
  550.88  2.51035e-16
  550.90  1.13438e-16
  550.92 -4.68892e-16
  550.94 -1.76798e-16
  550.96  3.91005e-16
  550.98  1.85499e-16
  551.00 -1.02814e-16
  551.02 -7.18919e-16
  551.04 -1.69023e-15
  551.06 -4.32932e-16
  551.08 -3.06414e-16
  551.10 -6.61357e-16
  551.12  9.45847e-17
  551.14 -1.98891e-15
  551.16 -1.11782e-16
  551.18  4.48578e-16
  551.20 -7.74751e-16
  551.22  6.83471e-16
  551.24  1.00722e-15
  551.26  4.89460e-16
  551.28  3.94964e-17
  551.30  1.22871e-15
  551.32  1.34119e-17
  551.34  1.68656e-17
  551.36  3.34080e-16
  551.38  1.02972e-15
  551.40  4.88683e-16
  551.42 -5.10657e-16
  551.44 -6.45876e-16
  551.46  8.38821e-16
  551.48 -5.64469e-16
  551.50  6.34735e-16
  551.52 -1.73822e-16
  551.54  1.75407e-15
  551.56  1.37533e-17
  551.58  6.55531e-16
  551.60 -1.26633e-15
  551.62 -2.83074e-16
  551.64  1.32321e-15
  551.66 -4.77352e-16
  551.68 -2.66183e-16
  551.70 -1.08780e-16
  551.72 -5.38642e-17
  551.74 -9.19340e-16
  551.76  1.25428e-16
  551.78  1.50043e-16
